FORCE/DISPLACEMENT CLAMP EXPERIMENT 
 11/17/2015 
 
 Experiment Name: 	 Default 
 Cantilever ID #: 	 Default 
 Sampling rate (Hz): 	 1000 
 Actuation Mode: 	 Disp. Clamp 
 
 Set Point (um) 	 Actuator Position (um) 	 Piezo Position (um) 
5.466919	5.487061	-0.004120
5.533447	5.544434	-0.001282
5.599976	5.601196	-0.002228
5.666504	5.665283	-0.001892
5.733032	5.741577	-0.002869
5.800171	5.805664	-0.003174
5.866699	5.881958	-0.000946
5.933228	5.945435	-0.003815
5.999756	6.002808	-0.000305
6.066895	6.072998	-0.001587
6.133423	6.143188	-0.002869
6.199951	6.206665	-0.007324
6.266479	6.276855	-0.003815
6.333618	6.353149	-0.004120
6.400146	6.404419	-0.005096
6.466675	6.480713	-0.003510
6.533203	6.550903	-0.003510
6.599731	6.621094	-0.006683
6.666870	6.678467	-0.002228
6.733398	6.748047	-0.004120
6.799927	6.818237	-0.000641
6.866455	6.869507	-0.002228
6.933594	6.939697	-0.000305
7.000122	6.996460	-0.005096
7.066650	7.066650	-0.000946
7.133179	7.130737	-0.001892
7.199707	7.219849	-0.005096
7.266846	7.277222	-0.005096
7.333374	7.340698	-0.005402
7.399902	7.398071	-0.007965
7.466431	7.474365	-0.004761
7.533569	7.544556	-0.004456
7.600098	7.620850	-0.004456
7.666626	7.678223	-0.002869
7.733154	7.755127	-0.003174
7.800293	7.792969	-0.004761
7.866821	7.875977	-0.003510
7.933350	7.939453	-0.006378
7.999878	8.009644	-0.000641
8.066406	8.060913	-0.003174
8.133545	8.150024	-0.000946
8.200073	8.194580	-0.007629
8.266602	8.270874	-0.004761
8.333130	8.315430	-0.004761
8.400269	8.404541	-0.005737
8.466797	8.461914	-0.006378
8.533325	8.544922	-0.006042
8.599854	8.608398	-0.008270
8.666382	8.691406	-0.003815
8.733521	8.735962	-0.006042
8.800049	8.806152	-0.003174
8.866577	8.876343	-0.004456
8.933105	8.939819	-0.001587
9.000244	8.997192	-0.003510
9.066772	9.073486	-0.007629
9.133301	9.124756	-0.001892
9.199829	9.213867	-0.003510
9.266968	9.277344	-0.005737
9.333496	9.334717	-0.005096
9.400024	9.404907	-0.006378
9.466553	9.475098	-0.004120
9.533081	9.532471	-0.006378
9.600220	9.615479	-0.008270
9.666748	9.666138	-0.006042
9.733276	9.742432	-0.006042
9.799805	9.819336	-0.006378
9.866943	9.869995	-0.006378
9.933472	9.933472	-0.005096
10.000000	9.997559	-0.003815
10.066528	10.067749	-0.004120
10.133057	10.131226	-0.002869
10.200195	10.201416	-0.004120
10.266724	10.277710	-0.004761
10.333252	10.335083	-0.003174
10.399780	10.411377	-0.003510
10.466919	10.462646	-0.007629
10.533447	10.538940	-0.006683
10.599976	10.609131	-0.006989
10.666504	10.666504	-0.006042
10.733032	10.729980	-0.007965
10.800171	10.787354	-0.004456
10.866699	10.863647	-0.004456
10.933228	10.940552	-0.007629
10.999756	10.997925	-0.004456
11.066895	11.067505	-0.005737
11.133423	11.118774	-0.005096
11.199951	11.201782	-0.003815
11.266479	11.265259	-0.006042
11.333618	11.341553	-0.004120
11.400146	11.398926	-0.005402
11.466675	11.475220	-0.006042
11.533203	11.532593	-0.004761
11.599731	11.589966	-0.007629
11.666870	11.666870	-0.008270
11.733398	11.730347	-0.007965
11.799927	11.793823	-0.006378
11.866455	11.870728	-0.007965
11.933594	11.934204	-0.004456
12.000122	11.997681	-0.007629
12.066650	12.080688	-0.004761
12.133179	12.131958	-0.006989
12.199707	12.195435	-0.006989
12.266846	12.278442	-0.007629
12.333374	12.329102	-0.003510
12.399902	12.399292	-0.004120
12.466431	12.469482	-0.003815
12.533569	12.532959	-0.007629
12.600098	12.597046	-0.006378
12.666626	12.666626	-0.009216
12.733154	12.736816	-0.006042
12.800293	12.813110	-0.008911
12.866821	12.864380	-0.008270
12.933350	12.940674	-0.009216
12.999878	13.004761	-0.007965
13.066406	13.074341	-0.007324
13.133545	13.144531	-0.005737
13.200073	13.208618	-0.007629
13.266602	13.272095	-0.003815
13.333130	13.335571	-0.006683
13.400269	13.412476	-0.007965
13.466797	13.469849	-0.005737
13.533325	13.527222	-0.004456
13.599854	13.609619	-0.006378
13.666382	13.692627	-0.006042
13.733521	13.743286	-0.007629
13.800049	13.807373	-0.006989
13.866577	13.877563	-0.010498
13.933105	13.941040	-0.007324
14.000244	13.998413	-0.008270
14.066772	14.068604	-0.009552
14.133301	14.138794	-0.009216
14.199829	14.208374	-0.007965
14.266968	14.252930	-0.008270
14.333496	14.323120	-0.008911
14.400024	14.406128	-0.007324
14.466553	14.456787	-0.005096
14.533081	14.533691	-0.007965
14.600220	14.597168	-0.006378
14.666748	14.680176	-0.006042
14.733276	14.730835	-0.008270
14.799805	14.782104	-0.004761
14.866943	14.865112	-0.006042
14.933472	14.928589	-0.008911
15.000000	14.992065	-0.011139
15.066528	15.075073	-0.007629
15.133057	15.125732	-0.006683
15.200195	15.189819	-0.008911
15.266724	15.260010	-0.007965
15.333252	15.342407	-0.006683
15.399780	15.412598	-0.010193
15.466919	15.469971	-0.007324
15.533447	15.540161	-0.010193
15.599976	15.590820	-0.007629
15.666504	15.661011	-0.006683
15.733032	15.725098	-0.004761
15.800171	15.814209	-0.009857
15.866699	15.871582	-0.010193
15.933228	15.928955	-0.009857
15.999756	16.005249	-0.007629
16.066895	16.081543	-0.009216
16.133423	16.126099	-0.008606
16.199951	16.177368	-0.008911
16.266479	16.266479	-0.008911
16.333618	16.329956	-0.008911
16.400146	16.406860	-0.009552
16.466675	16.470337	-0.009216
16.533203	16.520996	-0.008911
16.599731	16.597900	-0.008911
16.666870	16.674194	-0.008270
16.733398	16.744385	-0.008911
16.799927	16.795044	-0.006683
16.866455	16.859131	-0.007629
16.933594	16.928711	-0.006683
17.000122	17.005615	-0.011475
17.066650	17.069092	-0.010498
17.133179	17.139282	-0.010834
17.199707	17.171021	-0.010834
17.266846	17.272949	-0.012726
17.333374	17.324219	-0.009216
17.399902	17.400513	-0.012085
17.466431	17.463989	-0.007629
17.533569	17.546997	-0.010834
17.600098	17.597656	-0.008606
17.666626	17.667847	-0.009216
17.733154	17.719116	-0.006683
17.800293	17.801514	-0.008270
17.866821	17.871704	-0.011475
17.933350	17.948608	-0.007965
17.999878	18.005371	-0.006989
18.066406	18.075562	-0.009216
18.133545	18.120117	-0.008911
18.200073	18.197021	-0.011475
18.266602	18.266602	-0.012726
18.333130	18.336792	-0.010498
18.400269	18.388062	-0.012726
18.466797	18.483276	-0.011139
18.533325	18.521729	-0.009857
18.599854	18.591919	-0.010834
18.666382	18.674927	-0.011475
18.733521	18.744507	-0.011475
18.800049	18.808594	-0.007324
18.866577	18.853149	-0.010498
18.933105	18.929443	-0.006683
19.000244	18.992920	-0.007629
19.066772	19.069824	-0.008270
19.133301	19.127197	-0.006683
19.199829	19.190674	-0.006042
19.266968	19.260864	-0.012421
19.333496	19.343872	-0.010193
19.400024	19.400635	-0.015289
19.466553	19.470825	-0.009552
19.533081	19.547729	-0.011475
19.600220	19.592285	-0.009552
19.666748	19.655762	-0.010193
19.733276	19.738770	-0.008606
19.799805	19.796143	-0.010834
19.866943	19.872437	-0.014343
19.933472	19.935913	-0.011139
20.000000	20.012817	-0.009857
20.066528	20.069580	-0.010498
20.133057	20.139771	-0.008911
20.200195	20.191040	-0.009552
20.266724	20.254517	-0.012085
20.333252	20.330811	-0.014008
20.399780	20.394897	-0.009857
20.466919	20.471191	-0.009857
20.533447	20.528564	-0.013367
20.599976	20.598755	-0.011139
20.666504	20.681763	-0.013367
20.733032	20.738525	-0.011475
20.800171	20.821533	-0.008606
20.866699	20.866089	-0.010498
20.933228	20.910645	-0.010834
20.999756	20.999756	-0.009552
21.066895	21.069946	-0.009552
21.133423	21.114502	-0.012421
21.199951	21.203613	-0.008270
21.266479	21.254883	-0.011475
21.333618	21.331177	-0.010834
21.400146	21.388550	-0.012421
21.466675	21.464844	-0.011780
21.533203	21.528931	-0.016235
21.599731	21.592407	-0.011475
21.666870	21.668701	-0.013702
21.733398	21.726074	-0.013702
21.799927	21.783447	-0.010834
21.866455	21.860352	-0.011139
21.933594	21.923828	-0.012421
22.000122	22.006836	-0.012085
22.066650	22.064209	-0.014008
22.133179	22.140503	-0.010193
22.199707	22.191162	-0.009857
22.266846	22.255249	-0.008911
22.333374	22.331543	-0.010193
22.399902	22.395020	-0.010498
22.466431	22.459106	-0.008911
22.533569	22.509766	-0.012421
22.600098	22.573853	-0.013062
22.666626	22.669067	-0.014648
22.733154	22.752075	-0.015594
22.800293	22.790527	-0.010834
22.866821	22.866821	-0.013367
22.933350	22.924194	-0.013062
22.999878	23.000488	-0.011475
23.066406	23.057861	-0.011139
23.133545	23.121338	-0.011475
23.200073	23.204346	-0.011139
23.266602	23.261719	-0.011780
23.333130	23.319092	-0.011475
23.400269	23.402100	-0.011475
23.466797	23.439941	-0.006989
23.533325	23.529053	-0.014648
23.599854	23.599243	-0.013367
23.666382	23.650513	-0.011475
23.733521	23.726807	-0.014954
23.800049	23.784180	-0.014008
23.866577	23.860474	-0.012726
23.933105	23.943481	-0.014008
24.000244	24.000854	-0.012421
24.066772	24.077148	-0.015289
24.133301	24.140625	-0.013062
24.199829	24.204712	-0.010834
24.266968	24.268188	-0.014008
24.333496	24.319458	-0.013062
24.400024	24.401855	-0.015594
24.466553	24.453125	-0.007324
24.533081	24.536133	-0.010193
24.600220	24.593506	-0.012085
24.666748	24.663086	-0.015289
24.733276	24.727173	-0.015594
24.799805	24.803467	-0.012421
24.866943	24.873657	-0.011780
24.933472	24.931030	-0.016235
25.000000	24.994507	-0.014008
25.066528	25.070801	-0.014343
25.133057	25.128174	-0.011475
25.200195	25.198364	-0.013062
25.266724	25.262451	-0.014648
25.333252	25.325928	-0.014954
25.399780	25.402222	-0.014008
25.466919	25.459595	-0.014008
25.533447	25.535889	-0.013367
25.599976	25.612793	-0.014343
25.666504	25.670166	-0.010193
25.733032	25.726929	-0.012085
25.800171	25.797119	-0.013367
25.866699	25.848389	-0.014008
25.933228	25.937500	-0.014008
25.999756	26.000977	-0.013702
26.066895	26.071167	-0.012085
26.133423	26.141357	-0.016876
26.199951	26.204834	-0.013367
26.266479	26.262207	-0.015289
26.333618	26.326294	-0.012085
26.400146	26.383667	-0.016235
26.466675	26.459961	-0.014008
26.533203	26.549072	-0.012421
26.599731	26.580811	-0.012726
26.666870	26.657104	-0.015930
26.733398	26.746826	-0.012085
26.799927	26.797485	-0.013062
26.866455	26.880493	-0.011780
26.933594	26.943970	-0.015289
27.000122	26.988525	-0.015289
27.066650	27.064819	-0.015289
27.133179	27.128906	-0.013062
27.199707	27.205200	-0.013702
27.266846	27.281494	-0.012421
27.333374	27.338867	-0.014648
27.399902	27.390137	-0.013062
27.466431	27.479248	-0.013702
27.533569	27.542725	-0.014648
27.600098	27.606812	-0.016235
27.666626	27.664185	-0.014008
27.733154	27.740479	-0.014008
27.800293	27.797852	-0.012085
27.866821	27.868042	-0.013367
27.933350	27.938232	-0.014648
27.999878	28.001709	-0.017517
28.066406	28.071899	-0.014343
28.133545	28.135376	-0.015930
28.200073	28.205566	-0.016571
28.266602	28.275757	-0.016876
28.333130	28.333130	-0.013702
28.400269	28.409424	-0.016235
28.466797	28.472900	-0.014954
28.533325	28.536987	-0.014954
28.599854	28.607178	-0.014954
28.666382	28.670654	-0.016235
28.733521	28.728027	-0.014648
28.800049	28.811035	-0.014648
28.866577	28.880615	-0.012726
28.933105	28.925171	-0.015930
29.000244	29.008179	-0.012085
29.066772	29.078369	-0.018158
29.133301	29.141846	-0.016571
29.199829	29.212036	-0.017181
29.266968	29.263306	-0.015289
29.333496	29.345703	-0.016235
29.400024	29.409790	-0.015594
29.466553	29.473267	-0.015930
29.533081	29.543457	-0.016235
29.600220	29.619751	-0.016235
29.666748	29.677124	-0.015930
29.733276	29.747314	-0.017822
29.799805	29.810791	-0.015289
29.866943	29.862061	-0.014008
29.933472	29.932251	-0.015594
30.000000	30.008545	-0.014008
30.066528	30.072021	-0.013062
30.133057	30.123291	-0.014008
30.200195	30.212402	-0.013367
30.266724	30.263062	-0.016876
30.333252	30.333252	-0.017181
30.399780	30.397339	-0.017181
30.466919	30.466919	-0.015930
30.533447	30.537109	-0.014954
30.599976	30.607300	-0.015594
30.666504	30.664673	-0.017822
30.733032	30.734863	-0.016235
30.800171	30.805054	-0.015289
30.866699	30.887451	-0.015594
30.933228	30.957642	-0.019104
30.999756	31.002197	-0.012726
31.066895	31.079102	-0.015930
31.133423	31.142578	-0.015930
31.199951	31.199951	-0.012726
31.266479	31.244507	-0.012726
31.333618	31.339722	-0.016876
31.400146	31.409912	-0.015594
31.466675	31.467285	-0.018799
31.533203	31.543579	-0.017822
31.599731	31.594849	-0.017181
31.666870	31.665039	-0.014648
31.733398	31.741333	-0.014954
31.799927	31.811523	-0.015594
31.866455	31.862183	-0.015594
31.933594	31.951904	-0.019440
32.000122	32.002563	-0.014954
32.066650	32.078857	-0.016571
32.133179	32.130127	-0.015594
32.199707	32.206421	-0.015930
32.266846	32.282715	-0.016235
32.333374	32.340088	-0.018799
32.399902	32.416992	-0.019745
32.466431	32.473755	-0.015930
32.533569	32.537842	-0.016235
32.600098	32.614136	-0.019104
32.666626	32.671509	-0.020050
32.733154	32.734985	-0.018158
32.800293	32.817993	-0.016235
32.866821	32.888184	-0.016235
32.933350	32.932739	-0.020691
32.999878	32.977295	-0.016571
33.066406	33.073120	-0.015289
33.133545	33.136597	-0.019440
33.200073	33.200073	-0.017517
33.266602	33.264160	-0.015594
33.333130	33.334351	-0.016571
33.400269	33.403931	-0.016235
33.466797	33.480835	-0.016876
33.533325	33.550415	-0.018799
33.599854	33.595581	-0.021027
33.666382	33.671875	-0.016571
33.733521	33.735352	-0.017822
33.800049	33.824463	-0.021667
33.866577	33.869019	-0.015594
33.933105	33.952026	-0.018158
34.000244	33.977661	-0.016235
34.066772	34.079590	-0.017181
34.133301	34.143066	-0.015289
34.199829	34.213257	-0.017517
34.266968	34.264526	-0.014343
34.333496	34.309082	-0.014343
34.400024	34.404297	-0.021027
34.466553	34.461670	-0.017181
34.533081	34.550781	-0.014648
34.600220	34.602051	-0.019104
34.666748	34.665527	-0.019104
34.733276	34.722900	-0.020386
34.799805	34.799194	-0.019104
34.866943	34.882202	-0.018158
34.933472	34.945679	-0.021027
35.000000	35.003052	-0.019104
35.066528	35.067139	-0.017822
35.133057	35.137329	-0.016876
35.200195	35.187988	-0.016235
35.266724	35.258179	-0.017517
35.333252	35.334473	-0.016876
35.399780	35.404663	-0.016235
35.466919	35.474854	-0.016235
35.533447	35.525513	-0.017181
35.599976	35.608521	-0.017517
35.666504	35.659790	-0.016876
35.733032	35.729370	-0.016571
35.800171	35.793457	-0.022278
35.866699	35.875854	-0.016876
35.933228	35.927124	-0.018799
35.999756	36.003418	-0.016571
36.066895	36.054687	-0.018799
36.133423	36.118164	-0.015930
36.199951	36.213989	-0.021027
36.266479	36.290283	-0.017517
36.333618	36.322021	-0.017822
36.400146	36.405029	-0.022919
36.466675	36.487427	-0.022278
36.533203	36.532593	-0.016571
36.599731	36.589355	-0.018158
36.666870	36.666260	-0.020050
36.733398	36.736450	-0.018799
36.799927	36.806030	-0.021027
36.866455	36.870117	-0.019745
36.933594	36.933594	-0.019745
37.000122	37.003784	-0.019440
37.066650	37.054443	-0.019745
37.133179	37.137451	-0.019745
37.199707	37.188721	-0.019745
37.266846	37.258301	-0.018158
37.333374	37.322388	-0.018158
37.399902	37.405396	-0.019745
37.466431	37.449951	-0.017822
37.533569	37.545166	-0.020386
37.600098	37.589722	-0.019104
37.666626	37.653809	-0.019440
37.733154	37.742920	-0.019104
37.800293	37.793579	-0.022278
37.866821	37.876587	-0.019104
37.933350	37.933960	-0.021667
37.999878	37.997437	-0.021027
38.066406	38.067627	-0.022278
38.133545	38.156738	-0.019104
38.200073	38.201294	-0.020050
38.266602	38.271484	-0.019104
38.333130	38.341675	-0.018158
38.400269	38.399048	-0.019440
38.466797	38.462524	-0.020691
38.533325	38.513794	-0.019104
38.599854	38.602905	-0.017517
38.666382	38.666382	-0.018799
38.733521	38.723755	-0.018799
38.800049	38.812866	-0.018799
38.866577	38.864136	-0.017517
38.933105	38.934326	-0.019104
39.000244	38.984985	-0.017181
39.066772	39.086914	-0.020691
39.133301	39.131470	-0.020386
39.199829	39.195557	-0.020691
39.266968	39.259033	-0.019745
39.333496	39.335327	-0.019104
39.400024	39.412231	-0.019745
39.466553	39.462891	-0.021027
39.533081	39.539185	-0.021332
39.600220	39.596558	-0.019440
39.666748	39.673462	-0.019745
39.733276	39.743042	-0.021973
39.799805	39.819946	-0.019440
39.866943	39.864502	-0.016876
39.933472	39.953613	-0.018158
40.000000	39.991455	-0.018463
40.066528	40.068359	-0.022278
40.133057	40.131836	-0.019104
40.200195	40.195312	-0.019745
40.266724	40.259399	-0.021332
40.333252	40.303955	-0.021332
40.399780	40.399170	-0.021973
40.466919	40.444336	-0.021332
40.533447	40.513916	-0.021332
40.599976	40.590820	-0.021667
40.666504	40.654297	-0.019745
40.733032	40.711670	-0.020050
40.800171	40.794678	-0.021667
40.866699	40.845337	-0.018799
40.933228	40.928345	-0.021667
40.999756	40.972900	-0.017181
41.066895	41.062012	-0.021027
41.133423	41.119385	-0.020050
41.199951	41.195679	-0.021973
41.266479	41.265869	-0.020691
41.333618	41.323242	-0.019745
41.400146	41.386719	-0.021027
41.466675	41.463623	-0.022278
41.533203	41.520996	-0.020386
41.599731	41.603394	-0.021973
41.666870	41.654663	-0.020691
41.733398	41.724854	-0.022919
41.799927	41.788330	-0.022278
41.866455	41.871338	-0.021667
41.933594	41.921997	-0.018463
42.000122	41.992187	-0.023254
42.066650	42.062378	-0.019745
42.133179	42.125854	-0.021332
42.199707	42.196045	-0.020050
42.266846	42.259521	-0.020050
42.333374	42.323608	-0.022278
42.399902	42.387085	-0.022614
42.466431	42.463379	-0.020050
42.533569	42.527466	-0.020386
42.600098	42.603760	-0.023254
42.666626	42.661133	-0.023560
42.733154	42.711792	-0.020691
42.800293	42.794800	-0.021973
42.866821	42.852173	-0.020050
42.933350	42.928467	-0.020050
42.999878	42.992554	-0.022278
43.066406	43.062744	-0.019745
43.133545	43.126221	-0.021973
43.200073	43.196411	-0.021973
43.266602	43.259888	-0.020386
43.333130	43.323975	-0.021332
43.400269	43.393555	-0.020386
43.466797	43.450928	-0.022278
43.533325	43.521118	-0.021332
43.599854	43.578491	-0.022919
43.666382	43.667603	-0.021973
43.733521	43.737793	-0.025146
43.800049	43.789062	-0.021027
43.866577	43.852539	-0.022919
43.933105	43.916016	-0.020386
44.000244	43.992920	-0.023895
44.066772	44.049683	-0.019745
44.133301	44.132690	-0.022919
44.199829	44.183960	-0.021027
44.266968	44.254150	-0.021667
44.333496	44.310913	-0.019440
44.400024	44.387817	-0.025482
44.466553	44.470215	-0.022614
44.533081	44.514771	-0.021332
44.600220	44.591675	-0.024841
44.666748	44.667969	-0.024200
44.733276	44.712524	-0.022919
44.799805	44.795532	-0.023895
44.866943	44.846191	-0.021332
44.933472	44.923096	-0.021973
45.000000	44.999390	-0.022919
45.066528	45.069580	-0.022919
45.133057	45.126953	-0.020050
45.200195	45.183716	-0.026428
45.266724	45.253906	-0.022614
45.333252	45.317993	-0.022919
45.399780	45.381470	-0.021332
45.466919	45.457764	-0.024200
45.533447	45.527954	-0.020386
45.599976	45.592041	-0.022614
45.666504	45.648804	-0.022614
45.733032	45.725708	-0.026428
45.800171	45.802002	-0.023560
45.866699	45.852661	-0.025146
45.933228	45.922852	-0.022919
45.999756	45.986938	-0.026123
46.066895	46.056519	-0.021667
46.133423	46.113892	-0.024200
46.199951	46.203613	-0.022278
46.266479	46.254272	-0.022614
46.333618	46.337280	-0.020691
46.400146	46.381836	-0.024200
46.466675	46.464844	-0.022919
46.533203	46.534424	-0.021027
46.599731	46.585693	-0.024536
46.666870	46.655884	-0.023560
46.733398	46.719360	-0.023560
46.799927	46.795654	-0.024200
46.866455	46.853027	-0.025482
46.933594	46.917114	-0.022919
47.000122	46.961670	-0.021667
47.066650	47.044067	-0.022919
47.133179	47.114258	-0.023895
47.199707	47.178345	-0.022919
47.266846	47.247925	-0.023895
47.333374	47.318115	-0.025146
47.399902	47.382202	-0.025146
47.466431	47.451782	-0.025482
47.533569	47.509155	-0.022278
47.600098	47.573242	-0.023895
47.666626	47.668457	-0.024536
47.733154	47.713013	-0.024200
47.800293	47.764282	-0.023895
47.866821	47.827759	-0.024200
47.933350	47.916870	-0.023254
47.999878	47.974243	-0.028351
48.066406	48.038330	-0.022614
48.133545	48.101807	-0.024536
